Tiempo (s),Nivel Tanque Reserva (L),Camiones en Fila,Deficit Hidrico Acumulado (L)
1,806.67,2,0.0
2,1204.34,3,0.0
3,1579.7,4,0.0
4,1904.75,4,0.0
5,1998.8,6,0.0
6,1998.8,6,0.0
7,1998.8,6,0.0
8,1998.8,6,0.0
9,2000.0,5,0.0
10,1998.8,5,0.0
11,1998.8,6,0.0
12,1998.8,6,0.0
13,1998.8,6,0.0
14,1998.8,6,0.0
15,2000.0,5,0.0
16,1998.8,5,0.0
17,1998.8,5,0.0
18,1998.8,5,0.0
19,1998.8,5,0.0
20,1998.8,5,0.0
21,2000.0,5,0.0
22,1998.8,5,0.0
23,1998.8,5,0.0
24,1998.8,5,0.0
25,1998.8,5,0.0
